468.91
474.34
479.76
485.18
490.59
495.99
501.39
506.79
512.18
517.57
522.95
528.33
533.70
539.07
544.43
549.79
555.15
560.50
565.84
571.18
576.51
581.85
587.17
592.49
597.81
603.12
608.43
613.73
619.03
624.32
629.61
634.89
640.17
645.45
650.72
655.98
661.25
666.50
671.75
677.00
682.24
687.48
692.72
697.95
703.17
708.39
713.61
718.82
724.02
729.23
734.42
739.62
744.80
749.99
755.17
760.34
765.51
770.68
775.84
781.00
786.15
791.30
796.44
801.58
806.72
811.85
816.98
822.10
827.21
832.33
837.44
842.54
847.64
852.74
857.83
862.91
868.00
873.07
878.15
883.22
888.28
893.34
898.40
903.45
908.50
913.54
918.58
923.62
928.65
933.67
938.70
943.71
948.73
953.74
958.74
963.74
968.74
973.73
978.72
983.70
988.68
993.66
998.63
1003.60
1008.56
1013.52
1018.47
1023.42
1028.37
1033.31
1038.25
1043.18
1048.11
1053.04
1057.96
1062.87
1067.79
1072.70
1077.60
1082.50
1087.40
1092.29
1097.18
1102.06
1106.94
1111.82
1116.69
1121.56
1126.42
1131.28
1136.13
1140.99
1145.83
1150.68
1155.52
1160.35
1165.18
1170.01
1174.83
1179.65
1184.47
1189.28
1194.08
1198.89
1203.69
1208.48
1213.27
1218.06
1222.84
1227.62
1232.40
1237.17
1241.93
1246.70
1251.46
1256.21
1260.96
1265.71
1270.46
1275.20
1279.93
1284.66
1289.39
1294.11
1298.84
1303.55
1308.26
1312.97
1317.68
1322.38
1327.07
1331.77
1336.46
1341.14
1345.82
1350.50
1355.17
1359.84
1364.51
1369.17
1373.83
1378.49
1383.14
1387.78
1392.43
1397.07
1401.70
1406.33
1410.96
1415.59
1420.21
1424.82
1429.44
1434.05
1438.65
1443.25
1447.85
1452.45
1457.04
1461.62
1466.21
1470.78
1475.36
1479.93
1484.50
1489.06
1493.63
1498.18
1502.74
1507.29
1511.83
1516.37
1520.91
1525.45
1529.98
1534.51
1539.03
1543.55
1548.07
1552.58
1557.09
1561.60
1566.10
1570.60
1575.09
1579.58
1584.07
1588.55
1593.03
1597.51
1601.98
1606.45
1610.92
1615.38
1619.84
1624.30
1628.75
1633.20
1637.64
1642.08
1646.52
1650.95
1655.38
1659.81
1664.24
1668.66
1673.07
1677.48
1681.89
1686.30
1690.70
1695.10
1699.50
1703.89
1708.28
1712.66
1717.04
1721.42
1725.79
1730.16
1734.53
1738.90
1743.26
1747.61
1751.97
1756.32
1760.66
1765.01
1769.35
1773.68
1778.02
1782.35
1786.67
1790.99
1795.31
1799.63
1803.94
1808.25
1812.56
1816.86
1821.16
1825.45
1829.75
1834.03
1838.32
1842.60
1846.88
1851.16
1855.43
1859.70
1863.96
1868.22
1872.48
1876.74
1880.99
1885.24
1889.48
1893.72
1897.96
1902.20
1906.43
1910.66
1914.88
1919.11
1923.33
1927.54
1931.75
1935.96
1940.17
1944.37
1948.57
1952.77
1956.96
1961.15
1965.33
1969.52
1973.70
1977.87
1982.05
1986.21
1990.38
1994.54
1998.71
2002.86
2007.02
2011.17
2015.31
2019.46
2023.60
2027.74
2031.87
2036.00
2040.13
2044.26
2048.38
2052.50
2056.61
2060.72
2064.83
2068.94
2073.04
2077.14
2081.24
2085.33
2089.42
2093.51
2097.59
2101.67
2105.75
2109.82
2113.90
2117.96
2122.03
2126.09
2130.15
2134.21
2138.26
2142.31
2146.36
2150.40
2154.44
2158.48
2162.51
2166.54
2170.57
2174.60
2178.62
2182.64
2186.65
2190.66
2194.67
2198.68
2202.68
2206.69
2210.68
2214.68
2218.67
2222.66
2226.64
2230.63
2234.60
2238.58
2242.55
2246.52
2250.49
2254.46
2258.42
2262.38
2266.33
2270.28
2274.23
2278.18
2282.12
2286.06
2290.00
2293.94
2297.87
2301.80
2305.72
2309.64
2313.56
2317.48
2321.40
2325.31
2329.21
2333.12
2337.02
2340.92
2344.82
2348.71
2352.60
2356.49
2360.37
2364.25
2368.13
2372.01
2375.88
2379.75
2383.62
2387.48
2391.35
2395.20
2399.06
2402.91
2406.76
2410.61
2414.45
2418.30
2422.13
2425.97
2429.80
2433.63
2437.46
2441.28
2445.11
2448.92
2452.74
2456.55
2460.36
2464.17
2467.98
2471.78
2475.58
2479.37
2483.17
2486.96
2490.74
2494.53
2498.31
2502.09
2505.87
2509.64
2513.41
2517.18
2520.94
2524.71
2528.47
2532.22
2535.98
2539.73
2543.48
2547.22
2550.97
2554.71
2558.45
2562.18
2565.91
2569.64
2573.37
2577.09
2580.82
2584.53
2588.25
2591.96
2595.67
2599.38
2603.09
2606.79
2610.49
2614.19
2617.88
2621.57
2625.26
2628.95
2632.63
2636.31
2639.99
2643.66
2647.34
2651.01
2654.67
2658.34
2662.00
2665.66
2669.32
2672.97
2676.62
2680.27
2683.92
2687.56
2691.20
2694.84
2698.48
2702.11
2705.74
2709.37
2712.99
2716.62
2720.24
2723.85
2727.47
2731.08
2734.69
2738.30
2741.90
2745.50
2749.10
2752.70
2756.29
2759.88
2763.47
2767.06
2770.64
2774.22
2777.80
2781.38
2784.95
2788.52
2792.09
2795.65
2799.22
2802.78
2806.33
2809.89
2813.44
2816.99
2820.54
2824.09
2827.63
2831.17
2834.71
2838.24
2841.77
2845.30
2848.83
2852.36
2855.88
2859.40
2862.92
2866.43
2869.94
2873.45
2876.96
2880.47
2883.97
2887.47
2890.97
2894.46
2897.96
2901.45
2904.93
2908.42
2911.90
2915.38
2918.86
2922.33
2925.81
2929.28
2932.75
2936.21
2939.67
2943.13
2946.59
2950.05
2953.50
2956.95
2960.40
2963.85
2967.29
2970.73
2974.17
2977.61
2981.04
2984.47
2987.90
2991.33
2994.75
2998.17
3001.59
3005.01
3008.42
3011.84
3015.25
3018.65
3022.06
3025.46
3028.86
3032.26
3035.65
3039.05
3042.44
3045.83
3049.21
3052.60
3055.98
3059.36
3062.73
3066.11
3069.48
3072.85
3076.22
3079.58
3082.94
3086.30
3089.66
3093.02
3096.37
3099.72
3103.07
3106.42
3109.76
3113.10
3116.44
3119.78
3123.11
3126.44
3129.77
3133.10
3136.43
3139.75
3143.07
3146.39
3149.71
3153.02
3156.33
3159.64
3162.95
3166.25
3169.55
3172.85
3176.15
3179.45
3182.74
3186.03
3189.32
3192.61
3195.89
3199.17
3202.45
3205.73
3209.01
3212.28
3215.55
3218.82
3222.08
3225.35
3228.61
3231.87
3235.13
3238.38
3241.64
3244.89
3248.13
3251.38
3254.62
3257.87
3261.11
3264.34
3267.58
3270.81
3274.04
3277.27
3280.50
3283.72
3286.94
3290.16
3293.38
3296.60
3299.81
3303.02
3306.23
3309.43
3312.64
3315.84
3319.04
3322.24
3325.43
3328.63
3331.82
3335.01
3338.20
3341.38
3344.56
3347.74
3350.92
3354.10
3357.27
3360.44
3363.61
3366.78
